SampleIdent,MgO,/
Title1,?,/
Title2,converted,/
DiffrType,XPERT,/
DiffrNumber,  1,/
Anode,Cu,/
LabdaAlpha1,  1.54060,/
LabdaAlpha2,  1.54433,/
RatioAlpha21,  0.50000,/
DivergenceSlit,Fixed,  0.10,/
ReceivingSlit,  0.10,/
MonochromatorUsed,YES,/
GeneratorVoltage,  40,/
TubeCurrent,  30,/
FileDateTime, 15.04.2002 11:48:42,/
DataAngleRange,   1.64567, 120.55997,/
ScanStepSize,  0.029039,/
ScanType,STEP,/
ScanStepTime,532081536.00,/
RawScan
       1,       1,       1,       1,       1,       1,       1,       1
       1,       1,       1,       1,       1,       1,       1,       1
       1,       1,       1,       1,       1,       1,       1,       1
       1,       1,       1,       1,       1,       1,      79,     196
     175,     137,     158,     120,     122,     137,     112,     142
     134,     132,     140,     193,     234,     303,     378,     395
     434,     490,     570,     642,     691,     776,     772,     851
     889,     923,     976,     917,    1057,    1072,    1142,    1078
    1142,    1113,    1200,    1247,    1268,    1302,    1250,    1244
    1194,    1133,    1262,    1304,    1367,    1398,    1436,    1470
    1577,    1604,    1473,    1458,    1429,    1395,    1427,    1443
    1458,    1557,    1645,    1693,    1573,    1682,    1681,    1672
    1744,    1720,    1759,    1848,    1902,    1959,    1915,    2066
    2201,    2110,    2110,    2071,    2109,    1988,    1967,    1750
    1648,    1633,    1681,    1735,    1790,    1881,    1953,    1946
    2015,    2071,    2153,    2271,    2264,    2337,    2397,    2387
    2428,    2367,    2466,    2502,    2514,    2589,    2611,    2590
    2553,    2760,    2808,    2797,    2863,    2968,    2880,    2838
    2776,    2779,    2769,    2789,    2816,    2866,    2892,    2940
    2867,    2719,    2621,    2680,    2708,    2682,    2754,    2653
    2735,    2574,    2564,    2515,    2356,    2372,    2414,    2433
    2510,    2507,    2427,    2447,    2424,    2311,    2350,    2366
    2328,    2273,    2244,    2258,    2236,    2213,    2191,    2120
    2119,    2141,    2167,    2086,    2049,    2151,    2037,    2033
    1983,    1963,    1931,    1915,    1856,    1762,    1739,    1944
    1959,    1906,    1980,    1884,    1894,    1823,    1878,    1775
    1827,    1856,    1859,    1866,    1934,    1962,    1897,    1986
    1967,    1939,    1921,    1916,    1987,    1917,    1897,    1991
    2023,    2014,    1941,    1941,    2094,    2202,    2114,    2042
    2065,    2162,    2196,    2130,    2161,    2218,    2208,    2125
    2073,    1946,    2104,    2075,    1995,    2019,    2195,    2216
    2272,    2144,    2130,    2036,    2216,    2180,    2183,    2188
    2256,    2272,    2233,    2215,    2347,    2438,    2382,    2423
    2320,    2381,    2450,    2416,    2439,    2510,    2508,    2490
    2566,    2513,    2572,    2534,    2467,    2625,    2585,    2591
    2630,    2601,    2589,    2725,    2811,    2882,    2903,    2792
    2637,    2530,    2483,    2830,    2939,    3224,    3403,    3537
    3816,    4039,    4351,    4785,    5405,    5995,    6963,    8035
    7443,    6068,    4424,    3589,    3276,    3065,    3206,    3239
    3121,    3130,    3124,    3204,    3268,    3137,    3064,    3124
    3178,    3095,    3018,    2993,    2942,    2943,    2948,    2986
    3021,    3196,    2957,    3080,    3069,    2868,    3207,    3082
    3177,    2939,    3082,    3055,    3005,    2968,    3077,    3250
    3487,    3616,    3830,    4078,    4188,    4371,    4806,    5094
    5740,    6535,    7506,    8630,    8181,    6672,    4848,    3897
    3583,    3458,    3317,    3198,    3275,    3288,    3299,    3252
    3178,    3205,    3112,    3071,    2977,    3013,    3174,    3367
    3152,    3222,    3087,    3039,    3046,    3136,    3282,    3305
    3117,    3107,    2955,    2707,    2661,    2697,    2589,    2638
    2625,    2703,    2743,    2779,    2868,    2804,    2555,    2595
    2633,    2412,    2369,    2453,    2346,    2458,    2549,    2698
    2913,    3004,    2949,    3099,    3056,    3018,    3005,    2997
    2999,    3057,    2843,    2765,    2845,    2883,    2968,    3114
    3165,    3179,    3121,    3050,    3058,    2991,    3083,    3146
    3185,    3169,    3318,    3422,    3505,    3419,    3568,    3651
    3971,    4365,    4848,    5275,    5857,    6896,    8380,   10034
   12294,   14708,   14879,   12253,    8164,    5151,    3979,    3725
    3641,    3761,    3787,    3643,    3647,    3553,    3482,    3312
    3254,    3334,    3342,    3347,    3353,    3340,    3474,    3560
    3644,    3646,    3536,    3631,    3592,    3717,    3724,    3552
    3473,    3524,    3511,    3442,    3527,    3528,    3546,    3620
    3579,    3647,    3576,    3493,    3657,    3655,    3718,    3762
    3827,    4000,    4117,    4101,    4107,    4110,    4069,    3868
    4032,    4189,    4275,    4108,    4189,    4202,    4103,    3897
    3764,    3617,    3621,    3617,    3748,    3814,    3915,    3787
    3880,    4022,    4103,    4242,    4584,    4887,    5487,    6483
    7873,    9471,   11931,   14686,   16938,   16326,   12178,    7939
    5414,    4479,    4107,    4198,    4117,    3950,    3786,    3578
    3523,    3386,    3166,    3167,    3229,    3309,    3412,    3453
    3305,    3253,    3142,    3248,    3287,    3586,    3556,    3512
    3571,    3656,    3679,    3809,    3902,    4071,    4216,    4341
    4234,    4243,    4082,    4037,    3678,    3655,    3487,    3605
    3816,    3768,    3920,    4002,    4326,    4519,    5036,    5944
    7081,    8802,   10903,   14350,   17811,   21511,   22684,   20301
   15579,   10555,    7605,    5751,    4875,    4512,    4268,    4190
    4400,    4510,    4697,    4677,    4743,    4874,    4893,    4776
    4661,    4541,    4562,    4422,    4487,    4510,    4535,    4524
    4817,    5133,    5363,    5841,    6212,    6882,    7669,    7907
    8133,    7911,    7649,    6954,    6489,    5566,    4721,    4404
    4568,    4815,    5166,    5474,    5660,    6228,    6718,    7122
    7204,    7438,    8006,    8959,   10383,   12317,   15173,   19311
   25642,   35387,   50206,   73843,  102892,  130008,  140811,  123190
   85593,   51378,   30053,   19107,   14462,   12539,   11824,   10487
    8944,    7190,    6254,    5783,    5470,    5150,    4838,    4412
    4086,    3985,    3969,    3943,    4009,    3924,    4037,    4114
    4384,    4465,    4722,    4692,    4719,    4747,    4519,    4527
    4676,    4770,    4709,    4670,    4856,    4876,    4864,    4801
    4692,    4561,    4449,    4504,    4658,    4619,    4570,    4600
    4393,    4027,    3683,    3528,    3452,    3311,    3553,    3871
    4070,    4231,    4351,    4270,    4455,    4676,    4774,    4608
    4531,    4471,    4505,    4363,    4404,    4778,    4961,    5166
    5087,    4904,    4763,    4503,    4394,    4850,    5049,    5369
    6094,    6832,    7718,    8264,    7520,    6552,    5656,    5260
    4676,    4475,    4245,    4153,    4100,    4007,    3934,    3969
    3958,    4191,    4357,    4186,    4343,    4300,    4264,    4238
    4127,    4012,    3985,    4169,    4538,    5037,    5416,    5762
    5567,    5190,    4702,    4795,    4611,    4735,    4667,    4623
    4637,    4714,    4816,    4695,    4532,    4594,    4635,    4914
    5087,    5199,    5285,    5110,    5184,    5377,    5592,    5610
    6322,    7370,    8129,    8473,    8507,    8215,    7690,    6603
    5884,    5002,    4705,    4295,    4228,    3846,    3864,    3877
    4361,    4865,    4806,    4718,    4712,    5178,    5980,    7080
    8827,   11013,   14310,   16792,   17651,   15716,   12243,    9254
    6847,    5679,    4855,    4532,    4311,    4142,    3932,    3830
    3521,    3549,    3614,    3580,    3409,    3283,    3167,    3205
    3238,    3418,    3623,    3757,    3704,    3763,    3744,    3929
    4259,    4397,    4747,    5248,    5698,    5697,    5836,    5069
    4868,    4692,    4594,    4904,    5407,    6377,    7517,    8848
    9076,    8267,    6855,    5588,    4464,    3972,    3606,    3747
    3835,    3657,    3572,    3433,    3586,    3736,    3747,    3869
    3853,    3902,    3795,    4036,    4139,    4312,    4529,    4767
    5460,    5922,    6220,    6206,    5676,    4934,    4351,    3799
    3620,    3898,    3972,    3975,    3975,    4024,    4069,    4014
    3966,    3758,    3969,    4068,    4334,    4511,    4519,    4822
    5506,    5793,    6390,    7259,    8638,   10846,   14401,   19946
   26036,   30637,   28573,   21431,   14180,    9175,    6563,    5232
    4783,    4483,    4282,    4255,    4095,    4087,    4190,    4179
    4369,    4147,    4327,    4190,    4041,    4005,    3829,    3492
    3557,    3437,    3350,    3260,    3089,    3133,    3325,    3433
    3642,    3765,    3923,    3859,    3993,    4256,    4624,    4690
    4440,    3951,    3447,    2962,    2735,    2934,    3175,    3280
    3351,    3342,    3561,    3941,    4783,    5539,    5840,    5503
    4863,    4332,    3961,    3921,    3826,    3633,    3518,    3451
    3451,    3437,    3562,    3629,    3420,    3575,    3508,    3663
    3836,    4032,    4474,    5076,    5920,    7086,    8070,    8638
    8176,    6699,    5682,    4757,    4194,    4049,    3753,    3782
    3794,    3822,    3812,    4152,    4264,    4662,    5035,    5572
    6421,    7844,    8914,    8971,    7899,    6222,    4925,    4180
    4114,    4089,    4120,    4006,    4018,    3884,    3713,    3607
    3574,    3646,    3611,    3637,    3570,    3611,    3584,    3813
    3716,    3804,    3802,    3889,    4048,    4251,    4237,    4015
    3787,    3603,    3599,    3539,    3720,    3770,    3577,    3620
    3545,    3631,    3623,    3555,    3560,    3512,    3646,    3692
    3671,    3664,    3606,    3738,    3838,    3845,    3817,    3837
    3807,    3923,    3745,    3769,    3738,    3946,    3991,    3849
    3852,    3785,    3859,    3887,    3948,    3917,    3821,    3918
    3844,    3700,    3926,    3912,    3795,    3898,    3962,    4156
    4186,    4462,    4773,    5009,    5450,    6052,    6900,    7303
    7154,    6118,    5408,    4692,    4215,    4018,    4026,    4083
    4178,    3998,    3983,    3886,    3950,    3967,    4061,    3971
    4034,    4350,    4287,    4455,    4526,    4359,    4892,    5526
    6579,    7629,    8645,    9564,   10052,    9935,    9741,   10106
   10350,   10023,    8542,    7158,    6296,    5329,    4746,    4644
    4775,    5131,    5872,    6735,    8197,   10039,   11265,   11327
   10610,    9117,    7572,    6203,    5472,    5187,    5065,    5114
    5661,    6100,    6341,    5863,    5290,    4682,    4332,    4105
    4311,    4244,    4315,    4514,    4552,    4823,    5182,    5994
    6527,    7618,    9000,   10902,   12619,   13736,   13796,   12973
   12364,   12480,   13595,   15287,   16962,   16736,   14374,   11855
   10480,    9797,    9891,   10530,   11290,   11742,   12209,   11740
   11390,   10546,   10009,   10035,    9724,    9369,    8146,    6422
    5197,    4264,    4356,    4399,    4668,    4749,    4719,    5090
    5013,    5152,    5164,    5597,    5082,    4524,    4271,    4290
    4382,    4298,    4296,    4395,    4140,    3909,    3571,    3600
    3799,    4075,    4359,    4430,    4327,    4270,    4229,    3983
    3808,    3575,    3374,    3388,    3339,    3307,    3413,    3482
    3489,    3658,    3754,    3951,    3944,    3902,    3697,    3581
    3440,    3214,    3204,    3006,    3120,    3089,    3200,    3154
    3174,    3036,    3104,    3112,    3011,    3016,    2945,    2987
    2967,    3091,    3237,    3275,    3268,    3057,    3101,    3361
    3611,    3759,    3792,    3870,    3945,    4397,    4650,    5506
    6401,    6838,    7283,    7583,    7134,    6567,    5842,    5385
    5000,    4678,    4507,    4295,    4163,    4306,    4988,    5983
    7308,    8122,    7965,    6986,    6212,    5642,    5107,    5067
    5542,    6309,    7524,    8842,    9853,    9740,    8676,    7146
    5898,    4854,    4193,    3636,    3222,    3066,    3235,    3385
    3589,    3859,    4214,    4199,    4042,    3954,    3609,    3628
    3472,    3849,    4489,    5130,    5791,    6505,    7082,    6790
    6034,    4731,    3860,    3195,    2728,    2242,    2080,    2192
    2369,    2603,    2825,    3124,    3356,    3169,    3077,    2679
    2580,    2403,    2286,    2229,    2207,    2120,    2108,    2132
    2209,    2248,    2359,    2494,    2582,    2692,    3120,    3097
    3311,    3128,    3127,    2773,    2492,    2340,    2340,    2444
    2578,    2482,    2694,    2693,    2789,    2946,    3114,    3100
    2931,    2785,    2566,    2303,    2265,    2279,    2083,    1859
    1651,    1680,    1764,    1949,    1830,    2005,    2265,    2496
    2619,    2485,    2294,    2228,    2072,    2038,    2068,    2135
    2127,    2124,    2014,    1962,    2049,    2056,    2015,    2058
    1986,    1910,    1968,    1879,    1947,    2076,    2097,    2111
    2244,    2252,    2441,    2550,    2700,    2687,    2640,    2754
    2911,    2926,    2889,    2697,    2463,    2298,    2207,    2161
    2224,    2352,    2308,    2396,    2361,    2225,    2336,    2469
    2831,    3133,    3804,    4728,    5457,    6162,    6324,    5717
    4407,    3795,    3373,    3169,    3114,    3008,    3057,    3179
    3302,    3495,    3657,    3404,    3249,    3047,    3021,    2900
    2965,    2924,    2745,    2613,    2363,    2357,    2233,    2133
    2159,    2018,    2082,    2005,    1863,    1888,    1904,    1697
    1712,    1765,    1776,    1786,    1853,    2008,    2251,    2312
    2301,    2342,    2424,    2300,    2090,    1904,    1848,    1681
    1749,    1873,    1784,    1643,    1562,    1637,    1647,    1619
    1532,    1372,    1370,    1435,    1344,    1366,    1363,    1409
    1302,    1514,    1661,    1948,    2264,    2923,    3300,    3670
    3690,    3448,    3060,    2651,    2539,    2733,    2816,    3029
    3408,    3608,    3533,    3327,    2939,    2574,    2283,    2012
    1975,    1768,    1775,    1701,    1699,    1662,    1795,    1716
    1846,    1851,    1808,    1824,    1825,    2000,    2026,    2097
    2202,    2282,    2649,    3132,    3654,    4020,    3946,    4200
    4396,    4483,    4512,    4503,    4410,    3911,    3253,    2987
    2869,    2699,    2322,    2271,    2488,    2699,    2791,    3234
    3445,    3388,    3414,    3125,    2793,    2460,    2247,    2134
    1973,    1964,    1880,    1885,    1706,    1880,    1815,    1809
    1763,    1824,    1887,    1932,    2050,    2160,    2163,    2212
    2331,    2568,    2764,    2739,    2938,    3080,    3084,    3038
    3128,    2986,    2818,    2487,    2120,    1942,    2070,    2058
    2191,    2236,    2192,    2258,    2233,    2196,    2028,    1840
    1782,    1534,    1437,    1310,    1381,    1384,    1352,    1306
    1256,    1235,    1213,    1376,    1376,    1480,    1465,    1358
    1395,    1459,    1528,    1713,    1872,    2065,    2121,    2044
    1824,    1782,    1616,    1641,    1633,    1709,    1763,    1717
    1782,    1817,    1805,    1763,    1796,    1852,    1941,    1906
    1881,    1913,    1997,    1824,    1700,    1681,    1701,    1710
    1681,    1923,    1946,    2038,    2103,    2266,    2506,    2637
    2893,    3170,    3325,    3267,    3089,    2944,    2773,    2615
    2707,    2798,    2630,    2503,    2348,    2145,    2128,    1929
    1944,    1894,    1906,    1913,    1893,    1860,    1778,    1833
    1909,    1767,    1667,    1737,    1724,    1743,    1570,    1597
    1694,    1851,    1805,    1818,    1930,    2074,    2139,    2166
    2183,    2179,    2153,    2132,    1931,    1831,    1813,    1811
    1729,    1671,    1752,    1893,    2085,    1956,    1950,    1924
    1904,    1900,    1978,    2058,    2070,    1992,    1789,    1782
    1698,    1558,    1556,    1607,    1599,    1576,    1608,    1613
    1662,    1575,    1621,    1656,    1473,    1552,    1521,    1513
    1600,    1636,    1793,    1744,    1902,    2030,    2082,    2115
    1773,    1688,    1615,    1572,    1710,    1558,    1583,    1613
    1588,    1667,    1530,    1764,    1765,    1894,    2146,    2339
    2478,    2359,    2069,    1964,    1777,    1621,    1521,    1467
    1406,    1413,    1363,    1473,    1584,    1584,    1669,    1732
    1761,    1920,    2206,    2298,    2185,    2059,    1968,    1922
    1739,    1574,    1595,    1464,    1508,    1572,    1702,    1824
    1817,    1885,    1774,    1879,    1916,    1924,    1976,    1924
    1874,    1857,    1979,    2112,    2167,    2178,    2139,    1899
    1715,    1690,    1610,    1517,    1540,    1541,    1470,    1512
    1503,    1524,    1550,    1608,    1637,    1581,    1517,    1710
    1792,    1760,    1638,    1479,    1447,    1382,    1415,    1235
    1255,    1233,    1309,    1303,    1415,    1545,    1619,    1691
    1981,    2089,    2244,    2336,    2295,    2446,    2276,    2130
    2120,    2044,    1824,    1757,    1830,    1910,    1890,    2021
    2054,    2002,    2011,    1838,    1859,    1889,    1961,    1995
    1974,    1937,    1723,    1758,    1753,    1746,    1771,    1795
    1705,    1714,    1685,    1611,    1669,    1683,    1781,    1716
    1858,    2024,    2002,    2057,    2084,    2185,    2249,    2187
    2416,    2526,    2728,    2759,    2927,    2912,    2723,    2432
    2110,    1924,    1747,    1612,    1585,    1643,    1642,    1718
    1861,    1990,    2115,    2097,    2136,    2162,    2151,    2175
    2226,    2117,    2016,    1902,    1791,    1750,    1738,    1645
    1519,    1601,    1655,    1680,    1654,    1696,    1731,    1691
    1702,    1680,    1811,    1786,    1779,    1897,    1880,    1804
    1576,    1425,    1331,    1325,    1522,    1500,    1594,    1675
    1679,    1529,    1516,    1540,    1551,    1510,    1430,    1389
    1374,    1235,    1083,    1051,    1062,     998,     984,     915
     944,     893,     941,     998,     927,     928,     895,     887
     838,     766,     765,     835,     800,     845,     789,     853
     868,     768,     757,     639,     626,     704,     650,     650
     590,     570,     536,     557,     571,     583,     531,     550
     539,     582,     603,     613,     646,     625,     629,     638
     657,     671,     632,     687,     683,     725,     708,     717
     674,     711,     670,     708,     699,     711,     695,     626
     596,     617,     597,     563,     577,     576,     618,     612
     605,     599,     620,     631,     699,     665,     685,     662
     696,     714,     708,     763,     821,     741,     764,     780
     817,     825,     738,     681,     639,     565,     576,     701
     800,     852,     877,     823,     767,     765,     786,     881
     822,     817,     798,     746,     802,     720,     698,     628
     575,     498,     554,     616,     582,     633,     572,     545
     591,     657,     651,     736,     700,     721,     713,     698
     685,     584,     539,     498,     559,     516,     437,     480
     493,     491,     491,     535,     554,     546,     522,     563
     582,     596,     637,     680,     636,     556,     530,     567
     657,     566,     572,     566,     541,     549,     594,     568
     548,     491,     480,     454,     456,     506,     534,     597
     585,     584,     512,     469,     431,     493,     523,     586
     559,     602,     594,     619,     609,     652,     670,     747
     709,     707,     688,     679,     708,     641,     623,     604
     570,     522,     556,     573,     569,     595,     474,     471
     428,     441,     435,     441,     457,     451,     486,     492
     466,     455,     508,     598,     612,     579,     554,     600
     591,     633,     632,     653,     636,     652,     609,     650
     653,     670,     679,     642,     673,     685,     653,     677
     737,     816,     794,     792,     721,     678,     688,     660
     648,     654,     585,     579,     537,     581,     591,     649
     613,     641,     645,     655,     749,     879,     906,     972
     976,     941,     991,     998,    1064,    1071,    1037,     965
     972,    1057,    1053,    1074,     948,     852,     852,     799
     772,     814,     832,     848,     768,     810,     808,     779
     715,     678,     644,     629,     614,     643,     657,     714
     732,     759,     816,     793,     695,     627,     630,     630
     665,     647,     708,     622,     607,     611,     657,     584
     588,     575,     578,     680,     656,     638,     713,     622
     562,     606,     652,     678,     750,     802,     848,     911
     956,     969,     952,     846,     889,     900,     794,     783
     814,     833,     798,     880,     874,     792,     713,     691
     661,     663,     711,     771,     756,     735,     821,     765
     842,     879,     842,     917,     959,    1015,    1040,    1116
    1098,    1069,    1096,    1036,    1089,    1096,    1207,    1204
    1301,    1418,    1575,    1613,    1640,    1619,    1803,    1760
    1769,    1912,    2077,    2142,    1980,    2015,    2071,    1946
    2028,    1950,    2014,    2058,    2095,    2005,    2145,    2028
    2109,    2151,    2146,    1945,    1828,    1632,    1526,    1576
    1484,    1590,    1610,    1622,    1658,    1622,    1731,    1668
    1601,    1700,    1651,    1560,    1441,    1439,    1400,    1369
    1343,    1367,    1456,    1392,    1348,    1229,    1217,    1336
    1272,    1381,    1331,    1316,    1266,    1144,    1241,    1386
    1479,    1390,    1354,    1404,    1373,    1292,    1230,    1236
    1270,    1358,    1289,    1249,    1314,    1273,    1311,    1318
    1329,    1348,    1307,    1326,    1373,    1357,    1325,    1349
    1403,    1378,    1366,    1314,    1358,    1353,    1455,    1487
    1534,    1575,    1685,    1671,    1736,    1613,    1673,    1709
    1710,    1699,    1697,    1808,    1718,    1846,    1894,    1904
    1871,    1796,    1834,    1868,    1730,    1747,    1636,    1614
    1606,    1503,    1541,    1506,    1494,    1440,    1442,    1399
    1355,    1398,    1453,    1489,    1549,    1573,    1572,    1590
    1607,    1705,    1754,    1871,    1826,    1921,    1927,    1994
    2048,    1992,    2114,    2303,    2313,    2284,    2406,    2358
    2102,    1954,    1819,    1705,    1599,    1659,    1668,    1578
    1593,    1525,    1558,    1599,    1554,    1554,    1641,    1581
    1650,    1522,    1545,    1670,    1673,    1639,    1700,    1751
    1740,    1664,    1519,    1241,    1369,    1568,    1622,    1553
    1434,    1491,    1545,    1669,    1628,    1506,    1645,    1619
    1687,    1685,    1733,    1776,    1889,    1795,    1815,    1816
    1808,    1855,    1943,    1969,    2002,    1949,    1941,    1897
    1846,    1801,    1734,    1814,    1866,    1908,    1864,    1888
    1880,    1917,    1864,    1855,    1719,    1699,    1703,    1613
    1648,    1522,    1567,    1547,    1634,    1693,    1747,    1766
    1873,    1722,    1834,    1791,    1793,    1767,    1746,    1915
    1969,    1996,    2100,    2107,    2206,    2230,    2240,    2254
    2228,    2135,    2033,    1890,    1819,    1832,    1802,    1821
    1754,    1825,    1820,    1729,    1725,    1817,    1704,    1729
    1691,    1596,    1638,    1649,    1549,    1628,    1704,    1862
    1975,    1906,    1941,    1957,    1936,    2160,    2144,    2180
    2223,    2290,    2172,    2131,    2108,    1879,    1908,    1830
    1849,    1804,    1718,    1806,    1849,    1835,    1944,    1997
    2054,    2032,    2034,    1913,    1972,    1948,    1980,    2016
    1860,    1703,    1618,    1588,    1570,    1580,    1507,    1578
    1461,    1599,    1535,    1665,    1639,    1604,    1604,    1606
    1652,    1663,    1627,    1645,    1599,    1676,    1644,    1582
    1591,    1621,    1577,    1682,    1678,    1683,    1676,    1710
    1777,    1752,    1784,    1776,    1774,    1854,    1758,    1652
    1644,    1688,    1666,    1676,    1641,    1572,    1747,    1746
    1730,    1729,    1675,    1544,    1601,    1602,    1530,    1678
    1752,    1753,    1723,    1661,    1590,    1576,    1626,    1684
    1558,    1511,    1459,    1385,    1348,    1380,    1374,    1457
    1390,    1521,    1492,    1505,    1505,    1595,    1587,    1573
    1510,    1550,    1507,    1571,    1511,    1523,    1412,    1331
    1333,    1356,    1407,    1324,    1298,    1294,    1309,    1349
    1346,    1344,    1216,    1175,    1155,    1145,    1115,    1073
    1009,     967,     973,     952,    1073,    1057,    1079,    1049
    1056,     994,    1043,    1065,    1128,    1142,    1082,    1141
    1153,    1142,    1074,    1184,    1181,    1268,    1287,    1227
    1274,    1421,    1416,    1307,    1424,    1402,    1417,    1388
    1520,    1470,    1533,    1503,    1584,    1630,    1612,    1627
    1648,    1573,    1535,    1553,    1353,    1480,    1337,    1345
    1266,    1281,    1281,    1358,    1292,    1382,    1414,    1381
    1388,    1475,    1480,    1471,    1524,    1428,    1379,    1448
    1455,    1459,    1408,    1414,    1361,    1270,    1377,    1391
    1394,    1379,    1334,    1357,    1217,    1066,    1043,    1016
    1140,    1340,    1322,    1326,    1197,    1311,    1417,    1436
    1359,    1334,    1247,    1245,    1234,    1180,    1111,    1066
    1037,     984,     887,     894,     865,     842,     811,     756
     682,     678,     771,     782,     778,     788,     752,     704
     683,     738,     711,     721,     687,     667,     608,     598
     505,     555,     567,     516,     472,     504,     466,     470
     480,     482,     458,     455,     527,     483,     549,     459
     499,     468,     501,     466,     466,     442,     460,     451
     437,     478,     486,     451,     492,     567,     563,     572
     639,     623,     663,     655,     675,     717,     689,     711
     733,     740,     839,     802,     762,     755,     747,     745
     786,     795,     830,     969,    1048,    1025,    1092,    1210
    1158,    1180,    1081,    1019,    1006,     936,    1111,    1077
    1170,    1169,    1272,    1275,    1221,    1252,    1120,    1101
    1162,    1084,    1110,    1204,    1234,    1343,    1270,    1323
    1326,    1266,    1282,    1281,    1178,    1176,    1195,    1230
    1147,    1146,    1188,    1173,    1166,    1132,    1203,    1092
    1069,    1046,     985,    1015,     990,     952,     949,     883
     860,     790,     839,     858,     869,     852,     849,     870
     848,     813,     787,     737,     816,     834,     909,     867
     859,     844,     862,     816,     856,     908,     797,     817
     772,     748,     782,     872,     883,     966,     914,     980
    1000,    1017,    1005,    1017,    1037,    1002,     989,     996
    1024,    1109,    1204,    1228,    1181,    1176,    1151,    1064
    1090,    1069,    1039,     983,    1018,     946,     971,    1008
     982,     948,     931,     906,     911,     933,     960,     954
     960,     943,     953,    1054,     954,    1028,     900,    1001
     959,    1035,     966,     969,    1046,     978,     989,     916
     818,     881,     823,     862,     843,     805,     791,     838
     865,     923,     902,     809,     795,     780,     818,     840
     724,     815,     750,     744,     754,     776,     729,     701
     744,     710,     784,     725,     713,     743,     712,     781
     751,     773,     811,     863,     869,     822,     755,     680
     687,     661,     702,     655,     629,     605,     582,     590
     598,     578,     555,     496,     548,     526,     487,     584
     550,     571,     579,     589,     638,     591,     580,     578
     601,     664,     681,     636,     555,     545,     562,     520
     494,     486,     514,     491,     478,     471,     530,     520
     505,     635,     605,     666,     672,     697,     610,     608
     522,     555,     517,     471,     472,     471,     475,     462
     494,     404,     402,     401,     372,     381,     376,     379
     404,     388,     384,     380,     341,     352,     354,     366
     388,     355,     375,     374,     370,     428,     432,     490
     519,     515,     536,     552,     619,     703,     746,     762
     758,     746,     754,     763,     794,     782,     787,     833
     767,     779,     797,     792,     803,     808,     861,     858
     813,     788,     826,     801,     803,     777,     771,     848
     826,     878,     845,     799,     851,     821,     808,     810
     791,     751,     803,     743,     758,     715,     826,     767
     823,     817,     788,     779,     830,     831,     857,     844
     822,     824,     760,     764,     700,     625,     546,     573
     571,     645,     693,     748,     703,     728,     691,     782
     759,     794,     815,     829,     889,     885,     917,     884
     909,     904,     912,     919,     876,     936,     957,     939
     883,     862,     854,     823,     879,     863,     852,     903
     882,     911,     945,     956,     978,     863,     901,     910
     944,     915,     930,     962,     956,    1006,    1049,    1006
     990,    1036,    1009,    1046,    1083,    1092,    1141,    1123
    1162,    1128,    1174,    1145,    1178,    1187,    1238,    1122
    1139,    1111,    1128,    1177,    1186,    1187,    1174,    1187
    1235,    1163,    1129,    1176,    1175,    1112,    1087,    1101
    1106,    1180,    1145,    1148,    1165,    1152,    1156,    1237
    1171,    1198,    1147,    1267,    1241,    1201,    1226,    1258
    1178,    1185,    1161,    1165,    1075,    1090,    1084,    1094
    1054,    1148,    1134,    1127,    1090,    1177,    1117,    1123
    1156,    1074,    1157,    1164,    1159,    1187,    1191,    1270
    1270,    1252,    1201,    1194,    1242,    1163,    1177,    1155
    1186,    1263,    1226,    1247,    1252,    1216,    1176,    1256
    1302,    1332,    1287,    1351,    1248,    1300,    1309,    1217
    1280,    1238,    1208,    1194,    1216,    1213,    1299,    1281
    1132,    1250,    1157,    1265,    1199,    1244,    1275,    1321
    1269,    1290,    1251,    1229,    1256,    1222,    1264,    1260
    1191,    1280,    1281,    1318,    1278,    1231,    1280,    1273
    1200,    1248,    1252,    1205,    1329,    1259,    1267,    1187
    1216,    1164,    1176,    1223,    1076,    1075,    1138,    1150
    1063,    1171,    1174,    1156,    1103,    1167,    1191,    1263
    1257,    1307,    1231,    1244,    1276,    1255,    1258,    1293
    1289,    1230,    1213,    1248,    1237,    1282,    1208,    1251
    1276,    1272,    1304,    1302,    1350,    1358,    1278,    1317
    1337,    1264,    1178,    1216,    1196,    1180,    1171,    1185
    1221,    1270,    1172,    1161,    1165,    1160,    1142,    1159
    1200,    1238,    1257,    1288,    1254,    1220,    1195,    1130
    1098,    1078,    1072,    1161,    1115,    1081,    1071,    1029
    1046,    1024,    1052,    1075,    1096,    1096,    1221,    1212
    1126,    1140,    1125,    1177,    1132,    1195,    1172,    1258
    1134,    1168,    1220,    1263,    1201,    1220,    1256,    1243
    1226,    1218,    1203,    1238,    1349,    1215,    1224,    1294
    1264,    1370,    1311,    1207,    1247,    1265,    1233,    1266
    1193,    1281,    1199,    1159,    1161,    1128,    1141,    1134
    1180,    1095,    1136,    1118,    1104,    1167,    1137,    1127
    1177,    1121,    1058,    1053,    1137,    1155,    1059,    1162
    1119,    1108,    1104,    1142,    1195,    1227,    1206,    1226
    1194,    1231,    1188,    1175,    1122,    1101,    1107,    1118
    1198,    1114,    1092,    1199,    1162,    1175,    1121,    1109
    1130,    1120,    1162,    1154,    1144,    1138,    1160,    1178
    1096,    1120,    1138,    1137,    1144,    1128,    1218,    1151
    1174,    1181,    1203,    1181,    1247,    1157,    1099,    1065
    1080,    1063,    1057,    1033,    1067,    1078,    1053,    1047
    1007,    1001,    1004,     992,     976,     998,     907,     899
     892,     931,     854,     975,     978,     943,     936,     920
     980,     904,     984,     966,     935,     896,     966,     915
     884,     878,     880,     943,     877,     936,     854,     865
     878,     978,     913,     906,     905,     948,     901,     820
     856,     891,     882,     839,     850,     823,     844,     797
     841,     794,     773,     722,     834,     841,     804,     797
     825,     821,     876,     836,     903,     902,     837,     849
     818,     824,     860,     786,     862,     817,     791,     802
     794,     788,     805,     830,     820,     806,     805,     824
     799,     876,     850,     782,     820,     831,     789,     829
     748,     739,     771,     768,     825,     835,     815,     823
     775,     817,     771,     803,     826,     802,     779,     799
     811,     712,     793,     735,     788,     754,     755,     757
     767,     784,     800,     779,     816,     820,     797,     849
     856,     854,     859,     827,     828,     872,     890,     858
     899,     885,     921,     882,     898,     886,     893,     821
     802,     842,     858,     847,     806,     876,     806,     837
     826,     845,     838,     857,     819,     893,     862,     830
     914,     887,     903,     905,     922,     864,     933,     951
     911,     856,     873,     890,     851,     839,     877,     872
     879,     888,     887,     847,     890,     933,     942,     956
     991,     994,     976,    1014,    1004,    1031,     994,    1023
    1041,    1019,    1014,     928,     961,     971,     989,     925
     964,     967,     962,     901,     961,     889,     872,     903
     921,     876,     866,     926,     959,     953,     919,     944
     940,     881,     903,     909,     869,     903,     843,     861
     936,     853,     904,     841,     900,     927,     916,     928
     920,     867,     887,     967,     866,     923,     900,     931
     915,     907,     931,     891,     961,     986,     994,    1006
     972,     968,     951,     954,     931,    1000,     971,     961
    1010,     946,    1010,     959,     974,     977,     933,     958
     926,     902,     897,     872,     842,     888,     857,     934
     884,     991,    1094,    1211,    1177,    1250,    1261,    1196
    1202,    1112,    1100,    1091,    1133,    1175,    1130,    1149
    1166,    1168,    1116,    1134,    1115,    1179,    1212,    1186
    1106,    1226,    1118,    1177,    1175,    1184,    1166,    1171
    1231,    1168,    1144,    1161,    1152,    1098,    1172,    1222
    1115,    1153,    1146,    1106,    1071,    1116,    1019,     973
     963,     881,     872,     919,     930,     893,     937,     922
     893,     930,     940,     891,     907,     867,     872,     880
     892,     892,     863,     846,     868,     929,     929,     906
     902,     869,     924,     955,     972,     940,     861,     938
     930,     885,     956,    1000,     997,    1015,     993,    1026
    1067,    1027,    1038,    1076,    1084,    1089,    1087,    1056
    1094,    1078,    1013,     992,    1063,    1097,    1055,    1061
    1088,    1005,    1081,    1065,    1062,    1064,    1078,    1031
    1109,    1032,    1043,    1020,    1105,     994,    1069,    1043
    1049,    1013,    1097,    1062,     991,    1058,    1096,    1061
    1004,     994,    1083,    1077,    1048,    1162,    1207,    1173
    1197,    1213,    1196,    1195,    1174,    1175,    1237,    1211
    1232,    1201,    1228,    1207,    1188,    1195,    1213,    1331
    1285,    1312,    1257,    1249,    1309,    1246,    1158,    1041
     802,     547,     312,      76,       8,       1,       1,       1
       1,       1,       1,       1,       1,       1,       1,       1
       1,       1,       1,       1,       1,       1,       1,       1
       1,       1,       1,       1,       1,       1,       1,       1
       1,       1,       1,       1,       1,       1,       1,       1
       1,       1,       1,       1,       1,       1,       1,       1
/